ARQUIVO DE MEDIDA
Usuário: 
Amostra: 
Comentário: Espectro de uma lâmpada halógena, colocada como fonte de radiação na entrada do monocromador, para verificar se o detector de silício está respondendo na faixa do visível. Passo: 10 nm, medidas por ponto: 3, range: 100-2500 nm APENAS COM A GRADE 1,
Parâmetros: vmode 1 sen 27 acgain 0 tc 10 23.000000 4.000000
Magnitude (mV)	Comprimento de onda(nm)
4.200000	100.000000
3.900000	110.006496
2.300000	119.995843
1.000000	129.983848
0.400000	139.970400
0.100000	149.955388
0.100000	159.938698
0.100000	169.953713
0.100000	179.966815
0.100000	189.977892
0.100000	199.986831
0.100000	209.993518
0.100000	219.997843
0.100000	229.999691
0.100000	239.998951
0.100000	249.995510
0.100000	259.989255
0.100000	269.980075
0.100000	279.967855
0.100000	289.952485
0.100000	299.967229
0.100000	309.978574
0.100000	319.986407
0.600000	329.990614
0.266667	339.991083
0.100000	349.987699
0.100000	359.980351
0.100000	369.968923
0.200000	379.953305
0.300000	389.966640
0.500000	399.975528
0.700000	409.979855
1.000000	419.979505
1.400000	429.974365
1.900000	439.964320
2.400000	449.949258
3.066667	459.962211
4.000000	469.969883
5.000000	479.972159
6.033333	489.968924
7.200000	499.960063
8.433333	509.945462
9.400000	519.958041
11.000000	529.964611
12.200000	539.965056
13.366667	549.959260
14.400000	559.947107
15.400000	569.961414
16.333333	579.969090
17.300000	589.970019
18.200000	599.964084
18.900000	609.951169
19.500000	619.963975
20.100000	629.969520
20.566667	639.967689
21.400000	649.958362
22.100000	659.974143
22.800000	669.982145
23.533333	679.982249
23.966667	689.974337
24.200000	699.958293
24.300000	709.966584
24.300000	719.966452
24.300000	729.957777
24.300000	739.972944
24.200000	749.979275
24.700000	759.976649
24.900000	769.964947
25.100000	779.976434
25.300000	789.978547
25.300000	799.971163
25.233333	809.986456
25.366667	819.991950
25.200000	829.987524
25.100000	839.973057
25.000000	849.980590
25.100000	859.977774
25.166667	869.964487
25.300000	879.972667
25.600000	889.970064
25.900000	899.956554
26.200000	909.963971
26.300000	919.960166
26.533333	929.945014
26.866667	939.950239
27.100000	949.943797
27.266667	959.957334
27.300000	969.958880
26.900000	979.948311
26.000000	989.957154
24.800000	999.953553
23.300000	1009.968957
21.800000	1019.971584
20.000000	1029.961308
18.100000	1039.969454
15.900000	1049.964361
13.700000	1059.977269
11.533333	1069.976598
9.700000	1079.962221
8.000000	1089.965246
6.366667	1099.954221
5.033333	1109.960165
4.000000	1119.951711
3.200000	1129.959787
2.500000	1139.953115
2.000000	1149.962530
1.700000	1159.956841
1.400000	1169.966788
1.200000	1179.961274
1.200000	1189.970942
1.200000	1199.964787
1.200000	1209.973352
1.300000	1219.965729
1.366667	1229.972361
1.400000	1239.962436
1.400000	1249.966294
1.500000	1259.953223
1.500000	1269.953457
1.633333	1279.966704
1.700000	1289.962403
1.766667	1299.970627
1.833333	1309.960922
1.900000	1319.963249
2.000000	1329.977305
2.200000	1339.972795
2.300000	1349.979512
2.366667	1359.967270
2.500000	1369.965747
2.600000	1379.974629
2.600000	1389.963898
2.700000	1399.963055
2.700000	1409.971778
2.700000	1419.960223
2.800000	1429.957706
2.800000	1439.963902
2.800000	1449.978480
2.800000	1459.971833
2.966667	1469.973026
2.966667	1479.981722
3.000000	1489.968499
3.000000	1499.962229
3.100000	1509.962567
3.200000	1519.969168
3.300000	1529.981683
3.600000	1539.971006
3.933333	1549.965674
4.400000	1559.965329
4.600000	1569.969615
4.700000	1579.978169
4.800000	1589.990628
4.800000	1599.978286
4.800000	1609.969256
4.800000	1619.963165
4.800000	1629.959642
4.800000	1639.958308
4.800000	1649.958786
4.800000	1659.960692
4.800000	1669.963642
4.800000	1679.967248
4.800000	1689.971118
4.866667	1699.974858
4.900000	1709.978073
4.800000	1719.980362
4.800000	1729.981323
4.900000	1739.980550
4.866667	1749.977635
5.000000	1759.972166
5.100000	1769.963730
5.200000	1779.951908
5.300000	1789.963151
5.500000	1799.969997
5.600000	1809.972019
5.766667	1819.968785
5.900000	1829.959861
5.900000	1839.971251
5.933333	1849.975899
6.033333	1859.973359
6.066667	1869.963184
6.000000	1879.971007
5.900000	1889.970108
5.866667	1899.960028
5.800000	1909.966114
5.700000	1919.961904
5.600000	1929.972551
5.500000	1939.971770
5.300000	1949.959082
5.100000	1959.959339
4.900000	1969.971765
4.600000	1979.970437
4.400000	1989.979898
4.200000	1999.974414
3.900000	2009.978315
3.700000	2019.966058
3.400000	2029.961761
3.166667	2039.964598
2.866667	2049.973735
2.600000	2059.964016
2.400000	2069.959117
2.200000	2079.958184
1.933333	2089.960350
1.800000	2099.964744
1.500000	2109.970483
1.400000	2119.976678
1.300000	2129.982430
1.200000	2139.986832
1.000000	2149.988968
1.000000	2159.987916
0.866667	2169.982741
0.900000	2179.972502
1.000000	2189.979089
1.000000	2199.978462
0.966667	2209.969650
0.800000	2219.974145
0.700000	2229.968240
0.700000	2239.973153
0.600000	2249.965403
0.600000	2259.965931
0.600000	2269.973318
0.500000	2279.964428
0.500000	2289.959776
0.500000	2299.957895
0.500000	2309.957306
0.500000	2319.956511
0.500000	2329.953994
0.500000	2339.948225
0.500000	2349.958395
0.500000	2359.961913
0.500000	2369.957192
0.500000	2379.962934
0.500000	2389.956917
0.466667	2399.957506
0.400000	2409.962587
0.400000	2419.970019
0.366667	2429.977633
0.300000	2439.983233
0.300000	2449.984595
0.300000	2459.979469
0.300000	2469.984480
0.300000	2479.978085
0.300000	2489.976517
0.300000	2499.976897
