ARQUIVO DE MEDIDA
Usuário: 
Amostra: 
Comentário: Espectro de uma lâmpada halógena, colocada como fonte de radiação na entrada do monocromador, para verificar se o detector de silício está respondendo na faixa do visível. Passo: 10 nm, medidas por ponto: 3, range: 100-2500 nm APENAS COM A GRADE 2,
Parâmetros: vmode 1 sen 27 acgain 0 tc 10 23.000000 4.000000
Magnitude (mV)	Comprimento de onda(nm)
3.900000	100.000000
0.233333	109.995775
0.266667	119.963689
0.300000	129.931268
0.300000	139.898484
0.266667	149.865309
0.200000	159.898603
0.166667	169.931443
0.200000	179.963802
0.333333	189.995651
0.466667	200.026962
0.500000	210.057707
0.466667	220.087857
0.266667	230.117383
0.200000	240.146257
0.233333	250.174451
0.266667	260.201937
0.200000	270.228686
0.133333	280.254669
0.100000	290.279858
0.200000	300.304225
0.200000	310.327742
0.133333	320.350379
0.133333	330.372110
0.200000	340.392904
0.200000	350.412734
0.100000	360.431572
0.133333	370.449389
0.200000	380.466156
0.200000	390.481846
0.166667	400.496430
0.133333	410.509879
0.300000	420.522166
0.200000	430.533261
0.100000	440.543137
0.200000	450.551766
0.233333	460.559118
0.133333	470.565165
0.233333	480.569880
0.300000	490.573233
0.366667	500.575197
0.366667	510.575743
0.500000	520.574843
0.800000	530.572468
1.133333	540.568591
1.500000	550.563182
1.900000	560.556214
2.400000	570.547658
3.033333	580.537486
3.733333	590.525670
4.400000	600.512181
5.066667	610.496991
5.666667	620.480072
6.200000	630.461396
6.700000	640.440933
7.433333	650.418657
7.966667	660.394538
8.033333	670.368549
7.900000	680.340661
7.666667	690.310846
7.566667	700.279076
7.300000	710.311757
6.800000	720.342399
6.300000	730.370973
5.766667	740.397452
5.333333	750.421804
4.900000	760.444003
4.433333	770.464019
4.333333	780.481824
4.400000	790.497388
4.933333	800.510684
5.766667	810.521681
6.900000	820.530353
8.300000	830.536668
9.866667	840.540600
11.766667	850.542120
13.600000	860.541197
15.600000	870.537805
17.400000	880.531914
18.933333	890.523496
20.400000	900.512521
21.733333	910.498962
22.900000	920.482789
23.966667	930.463974
24.700000	940.442489
25.300000	950.418304
25.800000	960.391391
26.166667	970.361721
26.366667	980.329266
26.400000	990.359979
26.200000	1000.387811
25.833333	1010.412734
25.333333	1020.434719
24.766667	1030.453735
24.000000	1040.469754
23.100000	1050.482747
22.100000	1060.492685
21.000000	1070.499538
19.733333	1080.503278
18.366667	1090.503874
17.000000	1100.501300
15.366667	1110.495524
13.700000	1120.486519
12.233333	1130.474254
10.900000	1140.458702
9.633333	1150.439832
8.400000	1160.417617
7.633333	1170.392026
7.033333	1180.363031
6.600000	1190.330604
6.400000	1200.360255
6.700000	1210.386370
7.233333	1220.408918
7.900000	1230.427869
8.666667	1240.443194
9.700000	1250.454864
10.700000	1260.462849
11.800000	1270.467119
12.800000	1280.467646
13.733333	1290.464399
14.900000	1300.457349
15.900000	1310.446466
16.933333	1320.431723
17.966667	1330.413087
19.000000	1340.390532
19.866667	1350.364026
20.633333	1360.333541
21.300000	1370.364167
22.033333	1380.390703
22.800000	1390.413117
23.233333	1400.431380
23.700000	1410.445463
24.200000	1420.455334
24.733333	1430.460964
25.100000	1440.462323
25.600000	1450.459382
25.966667	1460.452111
26.333333	1470.440479
26.766667	1480.424457
27.100000	1490.404016
27.400000	1500.379124
27.800000	1510.349754
28.266667	1520.380574
28.666667	1530.406796
29.000000	1540.428389
29.300000	1550.445323
29.900000	1560.457568
30.200000	1570.465094
30.566667	1580.467869
30.800000	1590.465865
31.166667	1600.459050
31.300000	1610.447395
31.500000	1620.430869
31.500000	1630.409443
31.600000	1640.383085
31.633333	1650.351766
31.700000	1660.379721
31.833333	1670.402589
31.900000	1680.420340
32.000000	1690.432942
31.966667	1700.440366
32.100000	1710.442581
32.100000	1720.439555
32.233333	1730.431258
32.366667	1740.417661
32.366667	1750.398731
32.700000	1760.374438
33.000000	1770.344753
33.233333	1780.373504
33.600000	1790.396730
33.766667	1800.414401
33.866667	1810.426485
34.000000	1820.432951
34.200000	1830.433769
34.200000	1840.428906
34.200000	1850.418333
34.200000	1860.402018
34.266667	1870.379930
34.200000	1880.352038
34.133333	1890.381773
34.100000	1900.405566
33.933333	1910.423387
33.800000	1920.435204
33.800000	1930.440986
33.566667	1940.440701
33.400000	1950.434318
33.166667	1960.421806
32.800000	1970.403132
32.600000	1980.378267
32.200000	1990.347177
31.866667	2000.372868
31.400000	2010.392192
30.800000	2020.405117
30.400000	2030.411613
30.000000	2040.411647
29.500000	2050.405187
28.833333	2060.392202
28.233333	2070.372659
27.600000	2080.346527
26.900000	2090.376440
26.200000	2100.399617
25.466667	2110.416024
24.800000	2120.425631
24.166667	2130.428403
23.500000	2140.424310
22.900000	2150.413319
22.100000	2160.395398
21.600000	2170.370515
21.000000	2180.400915
20.400000	2190.424201
20.000000	2200.440339
19.500000	2210.449296
18.933333	2220.451041
18.600000	2230.445540
18.200000	2240.432761
17.700000	2250.412671
17.300000	2260.385237
16.933333	2270.412300
16.433333	2280.431862
16.166667	2290.443890
15.800000	2300.448351
15.400000	2310.445211
15.000000	2320.434439
14.666667	2330.416000
14.366667	2340.389862
14.000000	2350.417487
13.533333	2360.437250
13.200000	2370.449119
12.866667	2380.453059
12.766667	2390.449037
12.300000	2400.437019
11.800000	2410.416973
11.400000	2420.388865
11.166667	2430.413764
10.766667	2440.430433
10.200000	2450.438840
10.000000	2460.438950
9.433333	2470.430729
9.100000	2480.414144
8.900000	2490.389160
8.366667	2500.416490
