ARQUIVO DE MEDIDA
Usuário: 
Amostra: 
Comentário: Medida de tensão sobre carga de 6,8 MOhm acoplada ao sensor de Si,mas com a grade 2 habilitada. Neste caso, a segunda ordem de difração é bem mais prounciada: devido ao blaze? obs.: transição de grade em 990 nm.
Parâmetros: vmode 1 sen 26 acgain 0 tc 10 23.000000 4.000000
Magnitude (mV)	Comprimento de onda(nm)
0.283333	500.000000
0.333333	510.011571
0.366667	520.024111
0.300000	530.030641
0.433333	540.031045
0.433333	550.025207
0.450000	560.013012
0.550000	570.027276
0.883333	580.034908
1.166667	590.035792
1.116667	600.029811
1.366667	610.016850
1.600000	620.029609
2.083333	630.035106
2.550000	640.033226
3.133333	650.023850
3.800000	660.039581
4.650000	670.047531
5.250000	680.047583
6.150000	690.039619
7.283333	700.023520
8.450000	710.031757
9.533333	720.031570
10.916667	730.022839
12.183333	740.037949
13.350000	750.044222
14.800000	760.041537
16.216667	770.029776
17.383333	780.041203
19.050000	790.043254
20.983333	800.035809
23.150000	810.051040
25.700000	820.056470
28.366667	830.051979
31.366667	840.037447
34.733333	850.044914
38.683333	860.042031
43.283333	870.028676
47.933333	880.036787
53.000000	890.034114
57.916667	900.020535
62.566667	910.027880
67.266667	920.024003
71.966667	930.008778
78.433333	940.013929
86.066667	950.007412
94.550000	960.020874
101.550000	970.022344
103.350000	980.011697
99.133333	990.020462
108.933333	999.992031
110.983333	1010.017069
110.716667	1020.039170
108.066667	1030.058304
103.166667	1040.074442
95.466667	1050.087555
86.133333	1060.097614
76.700000	1070.104589
67.483333	1080.108452
58.200000	1090.109174
49.133333	1100.106725
41.183333	1110.101076
34.483333	1120.092199
29.066667	1130.080064
24.016667	1140.064641
19.250000	1150.045904
15.066667	1160.023821
11.633333	1169.998364
8.650000	1179.969504
6.433333	1189.937212
4.500000	1199.967002
3.133333	1209.993256
2.116667	1220.015944
1.650000	1230.035037
1.200000	1240.050505
0.750000	1250.062319
1.066667	1260.070449
1.033333	1270.074865
1.366667	1280.075539
1.500000	1290.072441
1.666667	1300.065540
2.083333	1310.054809
2.450000	1320.040217
2.950000	1330.021735
3.333333	1339.999333
3.666667	1349.972983
4.216667	1359.942655
4.800000	1369.973440
5.366667	1380.000136
6.233333	1390.022711
7.133333	1400.041137
8.066667	1410.055382
8.583333	1420.065418
9.766667	1430.071214
11.000000	1440.072740
12.483333	1450.069968
13.783333	1460.062865
14.983333	1470.051404
16.500000	1480.035554
18.283333	1490.015285
19.716667	1499.990568
21.683333	1509.961372
23.400000	1519.992369
25.633333	1530.018770
28.083333	1540.040543
30.816667	1550.057658
33.400000	1560.070085
36.066667	1570.077794
38.850000	1580.080754
41.950000	1590.078935
44.666667	1600.072307
47.283333	1610.060840
50.916667	1620.044503
54.616667	1630.023267
59.083333	1639.997100
62.783333	1649.965974
67.400000	1659.994124
72.383333	1670.017188
77.183333	1680.035137
82.366667	1690.047938
88.416667	1700.055561
94.766667	1710.057977
101.200000	1720.055153
107.350000	1730.047060
112.900000	1740.033667
119.566667	1750.014942
128.033333	1759.990857
136.600000	1769.961379
146.450000	1779.990341
156.183333	1790.013779
165.333333	1800.031663
174.716667	1810.043961
182.333333	1820.050642
189.466667	1830.051676
196.516667	1840.047031
205.716667	1850.036677
210.883333	1860.020582
215.466667	1869.998715
220.416667	1879.971046
224.833333	1890.001005
230.166667	1900.025024
234.950000	1910.043073
237.183333	1920.055119
236.916667	1930.061130
235.916667	1940.061076
234.900000	1950.054926
231.233333	1960.042646
226.833333	1970.024208
221.250000	1979.999578
214.566667	1989.968725
207.600000	1999.994655
