ARQUIVO DE MEDIDA
Usuário: ivan
Amostra: Nenhuma
Comentário: Teste #5: idem à medida anterior, para tentar evidenciar a flutuação na foto-tensão.
Parâmetros: vmode 1 sen 27 acgain 0 tc 10 27.000000 4.300000
Magnitude (mV)	Comprimento de onda(nm)
0.400000	100.000000
0.366667	110.006496
0.300000	119.995843
0.300000	129.983848
0.200000	139.970400
0.133333	149.955388
0.200000	159.938698
0.200000	169.953713
0.300000	179.966815
0.300000	189.977892
0.300000	199.986831
0.300000	209.993518
0.300000	219.997843
0.300000	229.999691
0.300000	239.998951
0.300000	249.995510
0.300000	259.989255
0.200000	269.980075
0.300000	279.967855
0.300000	289.952485
0.300000	299.967229
0.200000	309.978574
0.200000	319.986407
0.200000	329.990614
0.300000	339.991083
0.300000	349.987699
0.200000	359.980351
0.200000	369.968923
0.200000	379.953305
0.200000	389.966640
0.200000	399.975528
0.200000	409.979855
0.200000	419.979505
0.300000	429.974365
0.200000	439.964320
0.200000	449.949258
0.200000	459.962211
0.300000	469.969883
0.300000	479.972159
0.200000	489.968924
0.200000	499.960063
0.266667	509.945462
0.300000	519.958041
0.200000	529.964611
0.200000	539.965056
0.300000	549.959260
0.300000	559.947107
0.400000	569.961414
0.300000	579.969090
0.500000	589.970019
0.500000	599.964084
0.600000	609.951169
0.600000	619.963975
0.666667	629.969520
0.733333	639.967689
0.800000	649.958362
0.633333	659.974143
0.700000	669.982145
0.900000	679.982249
1.100000	689.974337
1.200000	699.958293
1.400000	709.966584
1.700000	719.966452
2.000000	729.957777
2.300000	739.972944
2.500000	749.979275
2.833333	759.976649
3.100000	769.964947
3.200000	779.976434
3.200000	789.978547
3.466667	799.971163
3.600000	809.986456
3.900000	819.991950
4.200000	829.987524
4.600000	839.973057
5.133333	849.980590
5.700000	859.977774
6.200000	869.964487
6.600000	879.972667
7.000000	889.970064
7.266667	899.956554
7.400000	909.963971
7.700000	919.960166
8.000000	929.945014
8.633333	939.950239
9.400000	949.943797
10.000000	959.957334
10.300000	969.958880
10.300000	979.948311
