ARQUIVO DE MEDIDA
Usuário: 
Amostra: 
Comentário: CURIOSIDADE: medida do espectro da lanterna de LED branco. Passo de 5 nm.
Parâmetros: vmode 1 sen 23 acgain 0 tc 10 23.000000 4.000000
Corrente (A)	Comprimento de onda(nm)
1.250000e-11	300.000000
7.500000e-12	310.011939
1.500000e-11	320.019760
1.000000e-11	330.023955
2.000000e-11	340.024411
1.500000e-11	350.021015
1.250000e-11	360.013653
2.000000e-11	370.002212
3.500000e-11	379.986579
1.350000e-10	389.999900
5.000000e-10	400.008773
1.437500e-09	410.013084
3.355000e-09	420.012718
5.830000e-09	430.007562
8.187500e-09	439.997501
9.947500e-09	449.982422
1.039250e-08	459.995358
9.320000e-09	470.003012
7.992500e-09	480.005270
7.610000e-09	490.002016
8.460000e-09	499.993137
1.011500e-08	509.978517
1.206000e-08	519.991076
1.374750e-08	529.997626
1.516250e-08	539.998050
1.598000e-08	549.992233
1.629500e-08	559.980060
1.616750e-08	569.994345
1.560000e-08	580.001999
1.464250e-08	590.002906
1.336000e-08	599.996948
1.191250e-08	609.984010
1.044000e-08	619.996792
8.915000e-09	630.002313
7.610000e-09	640.000457
6.342500e-09	649.991106
5.245000e-09	660.006862
4.300000e-09	670.014838
3.447500e-09	680.014916
2.707500e-09	690.006978
2.115000e-09	699.990907
1.640000e-09	709.999171
1.267500e-09	719.999011
9.725000e-10	729.990308
7.450000e-10	740.005447
5.600000e-10	750.011748
4.300000e-10	760.009093
3.300000e-10	769.997361
2.500000e-10	780.008819
1.950000e-10	790.010901
1.500000e-10	800.003486
1.150000e-10	810.018748
9.000000e-11	820.024210
8.000000e-11	830.019752
6.500000e-11	840.005252
6.500000e-11	850.012752
7.000000e-11	860.009902
8.000000e-11	869.996581
9.500000e-11	880.004727
1.100000e-10	890.002089
1.225000e-10	899.988545
1.350000e-10	909.995926
1.350000e-10	919.992084
1.225000e-10	929.976896
1.100000e-10	939.982084
1.000000e-10	949.975604
9.000000e-11	959.989104
8.750000e-11	969.990612
8.500000e-11	979.980004
9.500000e-11	989.988808
1.100000e-10	999.985168
1.350000e-10	1010.000531
1.575000e-10	1020.003118
1.950000e-10	1029.992801
2.400000e-10	1040.000905
2.800000e-10	1049.995771
3.150000e-10	1060.008636
3.525000e-10	1070.007923
3.775000e-10	1079.993502
3.925000e-10	1089.996484
4.125000e-10	1099.985414
