ARQUIVO DE MEDIDA
Usuário: 
Amostra: 
Comentário: CURIOSIDADE: medida do espectro da lanterna de LED branco. Passo de 5 nm.
Parâmetros: vmode 1 sen 23 acgain 0 tc 10 23.000000 4.000000
Corrente (A)	Comprimento de onda(nm)
2.000000e-11	350.000000
1.500000e-11	354.984528
1.500000e-11	359.980351
1.500000e-11	364.975154
2.000000e-11	369.968923
2.000000e-11	374.961645
3.500000e-11	379.953305
6.500000e-11	384.943888
1.325000e-10	389.933381
2.600000e-10	394.921769
4.850000e-10	399.909039
8.450000e-10	404.895176
1.395000e-09	409.880167
2.232500e-09	414.863996
3.275000e-09	419.879864
4.510000e-09	424.894527
5.725000e-09	429.907970
6.965000e-09	434.920179
8.085000e-09	439.931139
9.132500e-09	444.940837
9.885000e-09	449.949258
1.033250e-08	454.956388
1.036000e-08	459.962211
9.990000e-09	464.966714
9.322500e-09	469.969883
8.615000e-09	474.971702
7.982500e-09	479.972159
7.630000e-09	484.971237
7.580000e-09	489.968924
7.865000e-09	494.965204
8.412500e-09	499.960063
9.177500e-09	504.953487
1.003750e-08	509.945462
1.100750e-08	514.935973
1.195000e-08	519.925006
1.284750e-08	524.912547
1.370000e-08	529.898581
1.441000e-08	534.883094
1.500750e-08	539.899067
1.547750e-08	544.913469
1.583250e-08	549.926286
1.605500e-08	554.937504
1.615750e-08	559.947107
1.613000e-08	564.955082
1.600250e-08	569.961414
1.576750e-08	574.966088
1.545500e-08	579.969090
1.502000e-08	584.970405
1.454000e-08	589.970019
1.393250e-08	594.967917
1.330000e-08	599.964084
1.261250e-08	604.958506
1.186500e-08	609.951169
1.113250e-08	614.942058
1.038250e-08	619.931158
9.625000e-09	624.918455
8.890000e-09	629.903934
8.202500e-09	634.887582
7.530000e-09	639.902151
6.882500e-09	644.914835
6.290000e-09	649.925618
5.720000e-09	654.934487
5.197500e-09	659.941425
4.717500e-09	664.946418
4.270000e-09	669.949452
3.845000e-09	674.950511
3.420000e-09	679.949582
3.047500e-09	684.946648
2.697500e-09	689.941697
2.382500e-09	694.934712
2.107500e-09	699.925679
1.860000e-09	704.914583
1.632500e-09	709.901411
1.430000e-09	714.886146
1.257500e-09	719.901334
1.097500e-09	724.914372
9.675000e-10	729.925246
8.400000e-10	734.933941
7.300000e-10	739.940442
6.400000e-10	744.944734
5.600000e-10	749.946801
4.850000e-10	754.946630
4.225000e-10	759.944204
3.700000e-10	764.939510
3.250000e-10	769.932532
2.825000e-10	774.923255
2.450000e-10	779.911665
2.175000e-10	784.897746
1.950000e-10	789.913838
1.675000e-10	794.927541
1.475000e-10	799.938840
1.275000e-10	804.947720
1.125000e-10	809.954165
1.025000e-10	814.958160
9.000000e-11	819.959691
8.250000e-11	824.958741
7.500000e-11	829.955297
7.000000e-11	834.949342
6.750000e-11	839.940862
6.500000e-11	844.929842
6.250000e-11	849.916266
