ARQUIVO DE MEDIDA
Usuário: ivan
Amostra: Nenhuma
Comentário: Teste #7: idem à medida anterior, para tentar evidenciar a flutuação na foto-tensão.
Parâmetros: vmode 1 sen 27 acgain 0 tc 10 27.000000 4.300000
Magnitude (mV)	Comprimento de onda(nm)
0.200000	100.000000
0.200000	110.006496
0.200000	119.995843
0.200000	129.983848
0.200000	139.970400
0.200000	149.955388
0.300000	159.938698
0.200000	169.953713
0.300000	179.966815
0.300000	189.977892
0.300000	199.986831
0.200000	209.993518
0.200000	219.997843
0.200000	229.999691
0.200000	239.998951
0.200000	249.995510
0.200000	259.989255
0.200000	269.980075
0.200000	279.967855
0.200000	289.952485
0.200000	299.967229
0.200000	309.978574
0.200000	319.986407
0.200000	329.990614
0.200000	339.991083
0.200000	349.987699
0.200000	359.980351
0.200000	369.968923
0.300000	379.953305
0.300000	389.966640
0.300000	399.975528
0.300000	409.979855
0.300000	419.979505
0.300000	429.974365
0.200000	439.964320
0.200000	449.949258
0.200000	459.962211
0.200000	469.969883
0.200000	479.972159
0.200000	489.968924
0.300000	499.960063
0.300000	509.945462
0.200000	519.958041
0.200000	529.964611
0.200000	539.965056
0.266667	549.959260
0.300000	559.947107
0.200000	569.961414
0.366667	579.969090
0.500000	589.970019
0.600000	599.964084
0.633333	609.951169
0.700000	619.963975
0.766667	629.969520
0.900000	639.967689
0.833333	649.958362
0.933333	659.974143
0.800000	669.982145
0.900000	679.982249
1.100000	689.974337
1.366667	699.958293
1.866667	709.966584
2.200000	719.966452
2.400000	729.957777
2.600000	739.972944
2.666667	749.979275
2.566667	759.976649
2.700000	769.964947
2.866667	779.976434
3.333333	789.978547
3.800000	799.971163
4.100000	809.986456
4.500000	819.991950
4.666667	829.987524
4.800000	839.973057
5.200000	849.980590
5.566667	859.977774
6.200000	869.964487
6.800000	879.972667
7.200000	889.970064
7.533333	899.956554
7.700000	909.963971
7.866667	919.960166
8.100000	929.945014
8.600000	939.950239
9.333333	949.943797
10.000000	959.957334
10.400000	969.958880
10.500000	979.948311
