ARQUIVO DE MEDIDA
Usuário: ivan
Amostra: Nenhuma
Comentário: Teste #9: idem à medida anterior, para tentar evidenciar a flutuação na foto-tensão.
Parâmetros: vmode 1 sen 27 acgain 0 tc 10 27.000000 4.300000
Magnitude (mV)	Comprimento de onda(nm)
0.200000	100.000000
0.200000	110.006496
0.200000	119.995843
0.200000	129.983848
0.200000	139.970400
0.200000	149.955388
0.100000	159.938698
0.200000	169.953713
0.200000	179.966815
0.200000	189.977892
0.200000	199.986831
0.300000	209.993518
0.300000	219.997843
0.300000	229.999691
0.300000	239.998951
0.233333	249.995510
0.300000	259.989255
0.300000	269.980075
0.300000	279.967855
0.200000	289.952485
0.200000	299.967229
0.200000	309.978574
0.200000	319.986407
0.200000	329.990614
0.100000	339.991083
0.100000	349.987699
0.100000	359.980351
0.100000	369.968923
0.200000	379.953305
0.166667	389.966640
0.100000	399.975528
0.200000	409.979855
0.200000	419.979505
0.200000	429.974365
0.200000	439.964320
0.200000	449.949258
0.200000	459.962211
0.233333	469.969883
0.200000	479.972159
0.300000	489.968924
0.200000	499.960063
0.300000	509.945462
0.300000	519.958041
0.200000	529.964611
0.300000	539.965056
0.400000	549.959260
0.400000	559.947107
0.400000	569.961414
0.500000	579.969090
0.500000	589.970019
0.500000	599.964084
0.533333	609.951169
0.600000	619.963975
0.600000	629.969520
0.433333	639.967689
0.500000	649.958362
0.600000	659.974143
0.833333	669.982145
1.200000	679.982249
1.500000	689.974337
1.700000	699.958293
1.866667	709.966584
2.000000	719.966452
1.933333	729.957777
2.100000	739.972944
2.200000	749.979275
2.633333	759.976649
3.000000	769.964947
3.400000	779.976434
3.600000	789.978547
3.600000	799.971163
3.800000	809.986456
4.000000	819.991950
4.400000	829.987524
4.866667	839.973057
5.400000	849.980590
5.833333	859.977774
6.366667	869.964487
6.700000	879.972667
6.866667	889.970064
7.066667	899.956554
7.400000	909.963971
7.700000	919.960166
8.000000	929.945014
8.500000	939.950239
9.100000	949.943797
9.800000	959.957334
10.200000	969.958880
10.300000	979.948311
